date,open,high,low,close,volume,adj_close
2024-05-20 00:00:00,143.8075,144.6065,143.2716,144.3726,163400,144.3726
2024-05-21 00:00:00,144.1485,144.8695,143.3203,144.7818,280400,144.7818
2024-05-22 00:00:00,144.2752,145.0157,143.6906,144.9767,283300,144.9767
2024-05-23 00:00:00,144.8501,145.1326,143.7783,143.9342,171700,143.9342
2024-05-24 00:00:00,144.6747,145.0157,143.5834,144.2947,162300,144.2947
2024-05-28 00:00:00,143.8367,143.9926,142.0829,142.95,318400,142.95
2024-05-29 00:00:00,141.9172,142.9403,140.8064,141.128,229700,141.128
2024-05-30 00:00:00,141.4105,143.2131,141.2839,142.3946,328100,142.3946
2024-05-31 00:00:00,142.3459,144.0413,142.1803,143.9049,358900,143.9049
2024-06-03 00:00:00,144.6942,144.6942,142.5311,144.3629,266200,144.3629
2024-06-04 00:00:00,143.866,144.587,142.9403,144.3921,287900,144.3921
2024-06-05 00:00:00,143.9342,144.4019,143.3106,144.129,229200,144.129
2024-06-06 00:00:00,144.2167,144.2167,141.6736,142.2193,197600,142.2193
2024-06-07 00:00:00,142.0341,142.5798,141.7223,141.8198,179100,141.8198
2024-06-10 00:00:00,141.1182,142.0731,140.2998,141.8587,125800,141.8587
2024-06-11 00:00:00,141.1962,142.0049,140.6505,141.771,147700,141.771
2024-06-12 00:00:00,142.4921,142.5603,140.3777,142.0926,221300,142.0926
2024-06-13 00:00:00,142.1511,142.7747,141.3034,142.0926,232400,142.0926
2024-06-14 00:00:00,141.3716,141.6541,139.9977,141.0403,141500,141.0403
2024-06-17 00:00:00,141.1572,142.9208,140.8649,142.5798,303800,142.5798
2024-06-18 00:00:00,142.7259,143.9049,142.7162,142.9306,219900,142.9306
2024-06-20 00:00:00,142.9013,143.749,141.9367,142.0731,199900,142.0731
2024-06-21 00:00:00,142.1316,143.369,141.5859,143.0865,444100,143.0865
2024-06-24 00:00:00,143.447,144.4311,142.9111,142.9598,182900,142.9598
2024-06-25 00:00:00,143.028,143.0377,140.7967,141.1475,194500,141.1475
2024-06-26 00:00:00,140.5531,141.0792,139.2962,140.0269,192400,140.0269
2024-06-27 00:00:00,140.1828,140.1926,138.6238,140.1828,377300,140.1828
2024-06-28 00:00:00,140.0951,140.6213,136.4997,137.2012,435100,137.2012
2024-07-01 00:00:00,137.7567,137.8541,134.8433,134.9894,306400,134.9894
2024-07-02 00:00:00,134.931,136.8992,134.2294,136.8018,259400,136.8018
2024-07-03 00:00:00,137.2695,137.7761,136.9674,137.6007,143300,137.6007
2024-07-05 00:00:00,137.3766,137.8151,136.1489,137.2889,207000,137.2889
2024-07-08 00:00:00,138.0197,138.8479,137.8736,137.8833,249300,137.8833
2024-07-09 00:00:00,137.2499,137.6494,136.1684,136.4509,238400,136.4509
2024-07-10 00:00:00,137.1428,138.0003,136.9674,137.669,142000,137.669
2024-07-11 00:00:00,137.5813,139.6274,137.1428,138.4484,244500,138.4484
2024-07-12 00:00:00,139.7346,141.7613,139.7346,140.8843,263900,140.8843
2024-07-15 00:00:00,141.05,141.9562,139.4715,139.7541,319900,139.7541
2024-07-16 00:00:00,140.1633,141.5762,140.1633,140.8551,178800,140.8551
2024-07-17 00:00:00,140.6408,142.0341,140.6408,141.1475,242300,141.1475
2024-07-18 00:00:00,140.9039,143.4762,140.8941,142.5311,434200,142.5311
2024-07-19 00:00:00,142.8331,142.8331,140.9526,142.1998,251200,142.1998
2024-07-22 00:00:00,142.2485,143.7783,141.5275,143.4177,235700,143.4177
2024-07-23 00:00:00,144.0803,144.7039,141.9367,142.2972,234500,142.2972
2024-07-24 00:00:00,142.3265,142.8721,140.2121,140.4459,250600,140.4459
2024-07-25 00:00:00,139.6053,140.7978,138.0317,138.2956,558100,138.2956
2024-07-26 00:00:00,139.8985,147.8743,139.1362,143.3488,562800,143.3488
2024-07-29 00:00:00,143.2707,145.0007,141.8925,144.4631,390900,144.4631
2024-07-30 00:00:00,144.0526,144.5608,142.1271,142.4594,411000,142.4594
2024-07-31 00:00:00,143.1925,145.4894,142.1271,143.6616,280600,143.6616
2024-08-01 00:00:00,143.5639,146.1638,142.1466,143.7105,335300,143.7105
2024-08-02 00:00:00,143.2707,143.6812,140.5046,142.4008,213500,142.4008
2024-08-05 00:00:00,140.1918,140.1918,136.331,137.5039,448500,137.5039
2024-08-06 00:00:00,138.1392,142.7917,137.9242,141.6579,476000,141.6579
2024-08-07 00:00:00,142.7135,143.9353,140.2309,140.3579,353600,140.3579
2024-08-08 00:00:00,141.1985,142.8601,141.1985,142.2737,268600,142.2737
2024-08-09 00:00:00,142.1271,142.1271,140.2309,140.7,263200,140.7
2024-08-12 00:00:00,140.7196,140.9248,139.5467,140.0549,221100,140.0549
2024-08-13 00:00:00,140.27,142.0196,139.8692,141.1105,212000,141.1105
2024-08-14 00:00:00,140.876,141.5406,140.2504,140.6512,115700,140.6512
2024-08-15 00:00:00,141.7263,144.0135,141.7263,143.691,277500,143.691
2024-08-16 00:00:00,142.8113,143.5248,142.3226,143.4075,250600,143.4075
2024-08-19 00:00:00,143.0165,144.3947,142.6256,143.6519,191200,143.6519
2024-08-20 00:00:00,143.6616,144.9616,143.6616,144.7661,387200,144.7661
2024-08-21 00:00:00,144.8248,146.1932,144.1308,145.9586,267300,145.9586
2024-08-22 00:00:00,146.1932,147.0044,145.3135,145.6263,200400,145.6263
2024-08-23 00:00:00,146.2811,147.1315,146.0661,147.0435,221400,147.0435
2024-08-26 00:00:00,147.2781,149.2232,146.7503,146.7698,235500,146.7698
2024-08-27 00:00:00,146.6232,148.1187,146.4571,147.7864,208300,147.7864
2024-08-28 00:00:00,147.5224,148.539,147.5224,148.1187,249000,148.1187
2024-08-29 00:00:00,149.1059,149.4577,147.7961,148.842,187100,148.842
2024-08-30 00:00:00,148.7638,149.9758,148.2164,149.7314,178500,149.7314
2024-09-03 00:00:00,148.6758,148.9397,146.3496,146.6526,362400,146.6526
2024-09-04 00:00:00,146.2225,147.4931,146.2225,147.327,175800,147.327
2024-09-05 00:00:00,147.6691,148.3337,146.5646,147.3172,200600,147.3172
2024-09-06 00:00:00,146.9849,149.663,146.9849,148.9397,319100,148.9397
2024-09-09 00:00:00,149.1254,149.6044,148.0209,148.4803,241500,148.4803
2024-09-10 00:00:00,148.4412,149.3404,148.0209,148.0893,158100,148.0893
2024-09-11 00:00:00,147.3856,147.4736,145.2744,147.4345,178000,147.4345
2024-09-12 00:00:00,147.4834,148.5781,146.5841,148.5292,200400,148.5292
2024-09-13 00:00:00,148.754,149.5555,148.4705,148.842,138600,148.842
2024-09-16 00:00:00,149.5848,149.7119,148.6367,149.5359,182900,149.5359
2024-09-17 00:00:00,150.5231,152.0577,148.4412,149.575,259900,149.575
2024-09-18 00:00:00,150.2885,151.9795,149.2623,149.6141,214200,149.6141
2024-09-19 00:00:00,151.5201,155.2245,151.5201,153.3577,412400,153.3577
2024-09-20 00:00:00,152.781,152.781,150.9923,152.39,663300,152.39
2024-09-23 00:00:00,152.6441,153.3674,151.2464,152.4389,315800,152.4389
2024-09-24 00:00:00,152.6539,153.5336,152.5073,153.0938,246200,153.0938
2024-09-25 00:00:00,153.7486,154.3058,152.3509,153.5922,284100,153.5922
2024-09-26 00:00:00,154.3742,155.4689,154.1396,154.8042,371600,154.8042
2024-09-27 00:00:00,155.0975,157.9027,154.6869,156.2802,354300,156.2802
2024-09-30 00:00:00,155.6937,156.7982,155.3418,156.5734,289800,156.5734
2024-10-01 00:00:00,156.9155,156.9155,155.4591,156.3584,192200,156.3584
2024-10-02 00:00:00,156.2508,156.4952,154.3937,155.1659,186900,155.1659
2024-10-03 00:00:00,154.423,156.8373,153.1035,155.3516,367000,155.3516
2024-10-04 00:00:00,156.329,157.8245,155.7328,156.9546,350500,156.9546
2024-10-07 00:00:00,155.7914,156.0358,154.4426,155.1073,223300,155.1073
2024-10-08 00:00:00,154.7065,155.4298,153.5531,155.0877,205900,155.0877
2024-10-09 00:00:00,154.7749,156.4365,154.5501,156.0944,152600,156.0944
2024-10-10 00:00:00,154.4817,155.7817,154.4817,155.6253,168500,155.6253
2024-10-11 00:00:00,157.3065,158.2643,156.7298,157.9027,194400,157.9027
2024-10-14 00:00:00,161.265,163.9725,159.7696,163.4154,469700,163.4154
2024-10-15 00:00:00,163.5424,165.8296,162.7312,164.8717,397300,164.8717
2024-10-16 00:00:00,164.8913,165.38,162.174,162.2913,330000,162.2913
2024-10-17 00:00:00,163.2101,164.5198,162.7605,164.0995,238200,164.0995
2024-10-18 00:00:00,165.2822,165.2822,163.992,164.8228,171500,164.8228
2024-10-21 00:00:00,164.6664,164.686,162.5454,162.5748,217900,162.5748
2024-10-22 00:00:00,161.9785,162.6138,161.0891,162.0665,228500,162.0665
2024-10-23 00:00:00,162.7507,164.1875,162.4086,163.8649,318100,163.8649
2024-10-24 00:00:00,164.9627,164.9724,162.8359,163.228,547300,163.228
2024-10-25 00:00:00,165.5507,166.4621,161.3266,165.5409,518900,165.5409
2024-10-28 00:00:00,166.5111,167.991,165.3938,165.7271,350000,165.7271
2024-10-29 00:00:00,165.6585,166.1093,164.2962,165.335,338100,165.335
2024-10-30 00:00:00,164.992,166.8051,164.7666,165.6584,290300,165.6584
2024-10-31 00:00:00,165.7173,166.8835,164.5118,164.5608,329900,164.5608
2024-11-01 00:00:00,164.747,167.5794,164.2766,166.0309,316300,166.0309
2024-11-04 00:00:00,166.2465,167.1678,164.8254,164.9038,191800,164.9038
2024-11-05 00:00:00,164.3942,166.9619,164.3942,166.9129,206200,166.9129
2024-11-06 00:00:00,171.6564,171.6564,168.7064,169.7061,264100,169.7061
2024-11-07 00:00:00,170.7253,171.9602,170.0785,171.2252,412300,171.2252
2024-11-08 00:00:00,171.2154,174.2927,171.0096,172.2542,309200,172.2542
2024-11-11 00:00:00,172.8031,174.4789,172.3914,172.6364,189100,172.6364
2024-11-12 00:00:00,173.1265,173.7047,171.4604,172.1954,179800,172.1954
2024-11-13 00:00:00,171.9994,172.8716,171.5584,171.9994,168400,171.9994
2024-11-14 00:00:00,171.6564,172.2836,170.4411,170.6273,198200,170.6273
2024-11-15 00:00:00,169.5199,170.2941,162.8555,163.1691,620500,163.1691
2024-11-18 00:00:00,163.0711,164.4726,161.0522,163.3651,384400,163.3651
2024-11-19 00:00:00,163.1005,164.3256,162.8849,163.5709,287600,163.5709
2024-11-20 00:00:00,163.669,165.5703,162.3459,165.3644,221800,165.3644
2024-11-21 00:00:00,165.3252,166.8345,164.3942,166.4915,205100,166.4915
2024-11-22 00:00:00,166.7855,168.6378,166.7855,168.089,241600,168.089
2024-11-25 00:00:00,168.6182,170.5489,168.3144,169.0592,270100,169.0592
2024-11-26 00:00:00,169.4121,169.4121,167.746,168.6084,140300,168.6084
2024-11-27 00:00:00,169.2258,170.4117,168.0988,168.3046,167200,168.3046
2024-11-29 00:00:00,169.1474,170.0295,168.6574,169.5101,117300,169.5101
2024-12-02 00:00:00,169.5297,169.6571,167.4324,169.3141,170900,169.3141
2024-12-03 00:00:00,169.9903,169.9903,167.6774,168.9612,160100,168.9612
2024-12-04 00:00:00,168.4614,169.4415,167.6186,169.1474,173400,169.1474
2024-12-05 00:00:00,168.579,169.0004,167.1285,167.6872,245000,167.6872
2024-12-06 00:00:00,168.1772,169.2062,167.4422,167.7362,209200,167.7362
2024-12-09 00:00:00,168.138,170.0099,166.8345,167.3834,301700,167.3834
2024-12-10 00:00:00,167.3147,167.9518,164.8352,167.501,287000,167.501
2024-12-11 00:00:00,168.4516,170.6273,168.3242,168.873,418600,168.873
2024-12-12 00:00:00,168.2458,169.1572,167.3735,168.2164,178300,168.2164
2024-12-13 00:00:00,167.501,167.5892,166.4327,166.8051,153200,166.8051
2024-12-16 00:00:00,166.7463,167.5205,164.2472,164.2864,236100,164.2864
2024-12-17 00:00:00,163.5709,163.5807,159.5919,159.8369,511900,159.8369
2024-12-18 00:00:00,160.4249,161.1404,154.7602,155.0543,468600,155.0543
2024-12-19 00:00:00,155.3483,158.3473,155.0739,155.7011,404700,155.7011
2024-12-20 00:00:00,155.5541,156.593,154.329,155.0249,730200,155.0249
2024-12-23 00:00:00,154.035,155.7305,153.8292,155.3581,194900,155.3581
2024-12-24 00:00:00,155.6129,156.2402,154.7701,156.1716,100500,156.1716
2024-12-26 00:00:00,155.2601,156.446,155.2601,155.6815,164500,155.6815
2024-12-27 00:00:00,154.6721,156.397,154.4662,154.9955,145000,154.9955
2024-12-30 00:00:00,153.8684,154.3486,151.9083,153.6038,221700,153.6038
2024-12-31 00:00:00,154.1428,155.0935,153.0648,153.9664,317100,153.9664
2025-01-02 00:00:00,154.5054,154.9563,150.3892,151.0851,239400,151.0851
2025-01-03 00:00:00,150.9675,152.614,149.8208,152.3983,250700,152.3983
2025-01-06 00:00:00,150.9283,151.5555,148.4193,149.8698,369000,149.8698
2025-01-07 00:00:00,152.81,152.9472,149.5562,150.3696,361200,150.3696
2025-01-08 00:00:00,149.8404,151.183,149.0563,151.0752,228600,151.0752
2025-01-10 00:00:00,149.6738,151.2223,149.5366,150.3892,350800,150.3892
2025-01-13 00:00:00,149.8796,151.6143,149.8796,150.8204,349300,150.8204
2025-01-14 00:00:00,151.7221,152.3493,150.4186,151.5261,196900,151.5261
2025-01-15 00:00:00,153.006,153.79,151.0949,152.4571,206100,152.4571
2025-01-16 00:00:00,152.7806,154.035,152.2121,153.2902,346300,153.2902
2025-01-17 00:00:00,153.839,154.7995,152.5747,152.9766,231900,152.9766
2025-01-21 00:00:00,153.594,157.0634,153.594,156.642,270900,156.642
2025-01-22 00:00:00,156.1617,157.5436,155.1817,155.8971,280000,155.8971
2025-01-23 00:00:00,155.2993,156.6224,154.5838,156.4361,149800,156.4361
2025-01-24 00:00:00,156.4655,157.2692,154.084,155.1425,329600,155.1425
2025-01-27 00:00:00,155.0935,155.7501,153.5254,155.2993,317000,155.2993
2025-01-28 00:00:00,154.427,157.1516,154.427,155.2601,204300,155.2601
2025-01-29 00:00:00,155.6129,155.6521,153.496,153.9762,265800,153.9762
2025-01-30 00:00:00,154.6721,155.5149,153.4568,154.9759,274200,154.9759
2025-01-31 00:00:00,154.7505,156.2107,153.6332,154.0154,834100,154.0154
2025-02-03 00:00:00,151.4967,153.6234,151.0654,152.8687,364600,152.8687
2025-02-04 00:00:00,152.9766,155.2993,152.9766,154.5545,302400,154.5545
2025-02-05 00:00:00,155.5668,156.9231,155.0754,155.6061,262600,155.6061
2025-02-06 00:00:00,157.1,157.1,152.7067,153.7682,446600,153.7682
2025-02-07 00:00:00,154.9181,155.1933,139.6052,140.7256,1221500,140.7256
2025-02-10 00:00:00,141.7871,142.1213,138.4847,140.8239,621900,140.8239
2025-02-11 00:00:00,139.8312,140.6175,137.8557,139.8509,377300,139.8509
2025-02-12 00:00:00,138.5535,141.0303,137.5313,139.271,423500,139.271
2025-02-13 00:00:00,140.303,141.3154,139.0351,140.3227,665900,140.3227
2025-02-14 00:00:00,141.2269,142.8191,140.2735,142.308,512800,142.308
2025-02-18 00:00:00,142.308,144.7652,141.4333,144.3819,489600,144.3819
2025-02-19 00:00:00,143.6349,144.9618,143.114,144.5195,331000,144.5195
2025-02-20 00:00:00,144.4507,144.893,143.4187,144.1656,283100,144.1656
2025-02-21 00:00:00,144.5096,144.8635,142.711,143.8315,451900,143.8315
2025-02-24 00:00:00,143.6742,144.7652,141.8854,143.114,353300,143.114
2025-02-25 00:00:00,143.3794,145.7874,143.2221,145.178,336700,145.178
2025-02-26 00:00:00,144.1362,146.6228,144.1067,144.1263,735600,144.1263
2025-02-27 00:00:00,143.7233,144.6571,142.8683,143.1336,262800,143.1336
2025-02-28 00:00:00,143.6546,144.431,142.1508,144.2344,348700,144.2344
2025-03-03 00:00:00,144.4507,146.2886,143.1926,144.0772,394100,144.0772
2025-03-04 00:00:00,143.0452,145.4139,142.652,143.4383,490100,143.4383
2025-03-05 00:00:00,143.5464,146.2985,143.5464,145.8955,445100,145.8955
2025-03-06 00:00:00,145.0305,148.903,144.5391,148.559,471700,148.559
2025-03-07 00:00:00,147.93,150.7311,146.6228,150.1611,480200,150.1611
2025-03-10 00:00:00,149.4633,151.3602,147.6646,147.989,391100,147.989
2025-03-11 00:00:00,147.7629,147.9791,144.7455,145.3549,304000,145.3549
2025-03-12 00:00:00,145.6989,145.6989,143.0648,143.5268,299700,143.5268
2025-03-13 00:00:00,143.9003,144.6767,141.2957,142.2785,238400,142.2785
2025-03-14 00:00:00,142.7405,144.372,142.0623,144.146,223600,144.146
2025-03-17 00:00:00,143.9986,145.463,143.3597,145.3058,225200,145.3058
2025-03-18 00:00:00,144.8635,145.0011,143.2811,143.7921,219900,143.7921
2025-03-19 00:00:00,143.8315,144.9323,142.9764,144.4605,279600,144.4605
2025-03-20 00:00:00,143.6251,144.8929,141.2662,142.711,332800,142.711
2025-03-21 00:00:00,141.5316,142.9665,139.9197,142.3375,601900,142.3375
2025-03-24 00:00:00,143.2516,145.6399,142.426,145.4532,463800,145.4532
2025-03-25 00:00:00,145.9446,146.6719,143.4285,144.6866,325200,144.6866
2025-03-26 00:00:00,144.5293,146.151,143.7921,146.0134,630400,146.0134
2025-03-27 00:00:00,145.7382,147.3206,144.5096,146.7899,312700,146.7899
2025-03-28 00:00:00,146.7309,147.4287,143.2614,144.4113,239800,144.4113
2025-03-31 00:00:00,144.0673,146.5343,143.5956,145.8365,372500,145.8365
2025-04-01 00:00:00,146.3279,147.4582,144.8536,146.5442,240000,146.5442
2025-04-02 00:00:00,145.463,148.5394,145.463,147.9496,247600,147.9496
2025-04-03 00:00:00,144.2443,147.4779,143.9494,146.1215,352900,146.1215
2025-04-04 00:00:00,142.7307,145.4237,137.6395,137.7771,531600,137.7771
2025-04-07 00:00:00,134.0029,139.6838,128.607,132.3419,629900,132.3419
2025-04-08 00:00:00,135.0251,136.922,129.0296,131.3688,473800,131.3688
2025-04-09 00:00:00,130.897,141.9444,129.0689,141.2859,491800,141.2859
2025-04-10 00:00:00,137.6002,140.9124,135.2118,138.3471,309000,138.3471
2025-04-11 00:00:00,138.4552,142.2294,137.3446,141.6397,203000,141.6397
2025-04-14 00:00:00,143.3007,143.8904,141.3252,143.2909,249300,143.2909
2025-04-15 00:00:00,143.5956,144.028,141.3055,141.4726,250700,141.4726
2025-04-16 00:00:00,141.5905,143.3204,140.1261,142.5144,307700,142.5144
2025-04-17 00:00:00,142.9076,143.2614,138.298,141.3645,390600,141.3645
2025-04-21 00:00:00,140.8436,141.5807,138.6813,140.1359,291600,140.1359
2025-04-22 00:00:00,142.023,144.3033,141.1286,143.517,217800,143.517
2025-04-23 00:00:00,145.3352,146.7604,144.6964,145.5121,537000,145.5121
2025-04-24 00:00:00,145.3942,149.3945,142.9666,148.8637,424500,148.8637
2025-04-25 00:00:00,148.2642,150.3773,145.0404,146.5048,220500,146.5048
2025-04-28 00:00:00,147.2322,148.4411,145.7382,147.1339,235200,147.1339
2025-04-29 00:00:00,147.1928,149.3748,146.4557,147.7236,359900,147.7236
2025-04-30 00:00:00,146.5147,147.4189,144.6866,147.3796,556200,147.3796
2025-05-01 00:00:00,146.3445,148.395,144.8756,146.1769,445300,146.1769
2025-05-02 00:00:00,150.8201,150.8299,145.6938,149.8441,431600,149.8441
2025-05-05 00:00:00,149.2822,151.0468,148.74,149.3315,267600,149.3315
2025-05-06 00:00:00,148.119,149.8836,147.3007,148.7794,312000,148.7794
2025-05-07 00:00:00,149.7258,150.9778,148.4837,149.2428,318400,149.2428
2025-05-08 00:00:00,149.6371,152.3777,149.0949,151.1848,302500,151.1848
2025-05-09 00:00:00,151.727,152.1115,150.7708,151.1454,231600,151.1454
2025-05-12 00:00:00,153.5804,154.369,151.52,153.3142,352500,153.3142
2025-05-13 00:00:00,154.093,154.093,151.0271,151.4609,339400,151.4609
2025-05-14 00:00:00,151.4412,151.4412,148.8287,150.3173,350100,150.3173
2025-05-15 00:00:00,150.1892,153.2748,150.1892,152.7523,278100,152.7523
2025-05-16 00:00:00,152.979,154.9211,152.3974,154.7831,278600,154.7831
2025-05-19 00:00:00,154.1423,156.0942,154.093,155.8379,185400,155.8379
2025-05-20 00:00:00,157.987,157.987,155.6703,156.2815,388100,156.2815
2025-05-21 00:00:00,154.6352,155.414,153.6198,154.231,319800,154.231
2025-05-22 00:00:00,154.1423,155.0295,153.3536,154.4282,278900,154.4282
2025-05-23 00:00:00,152.9199,153.9648,152.0721,153.7283,260500,153.7283
2025-05-27 00:00:00,154.8028,156.1928,154.4676,155.9167,352800,155.9167
2025-05-28 00:00:00,155.9168,156.5871,155.0295,155.1675,364400,155.1675
2025-05-29 00:00:00,155.5914,156.4195,154.5958,156.0844,232100,156.0844
2025-05-30 00:00:00,155.9956,156.528,154.3197,156.1533,335100,156.1533
2025-06-02 00:00:00,155.3055,156.8139,153.0579,154.6845,349600,154.6845
2025-06-03 00:00:00,153.9648,155.207,153.7874,154.0437,397800,154.0437
2025-06-04 00:00:00,154.2704,154.3,148.1584,148.2767,831900,148.2767
2025-06-05 00:00:00,149.4301,151.1651,146.936,150.3272,482400,150.3272
2025-06-06 00:00:00,152.1805,152.2889,150.0512,151.1355,264700,151.1355
2025-06-09 00:00:00,150.5441,151.0074,149.2132,149.4498,388400,149.4498
2025-06-10 00:00:00,150.0019,150.83,148.7203,150.3666,323500,150.3666
2025-06-11 00:00:00,150.8299,151.4116,149.4498,149.7653,380800,149.7653
2025-06-12 00:00:00,149.2625,152.4269,149.2625,152.1608,337200,152.1608
2025-06-13 00:00:00,150.8299,151.5397,148.5921,149.016,361200,149.016
2025-06-16 00:00:00,149.0949,150.7313,148.9766,149.5385,346200,149.5385
2025-06-17 00:00:00,148.5231,149.1146,147.0148,147.3303,379700,147.3303
2025-06-18 00:00:00,147.005,148.5921,147.005,147.5767,383200,147.5767
2025-06-20 00:00:00,148.1584,148.6316,146.8768,148.1682,570500,148.1682
2025-06-23 00:00:00,147.3697,151.7566,147.3697,151.6087,356500,151.6087
2025-06-24 00:00:00,152.3777,152.3777,151.0074,151.6876,246600,151.6876
2025-06-25 00:00:00,151.6778,152.3382,150.6032,151.7467,264700,151.7467
2025-06-26 00:00:00,152.3382,153.3734,150.9482,152.289,658200,152.289
2025-06-27 00:00:00,152.4664,153.8958,152.0425,153.61,643100,153.61
2025-06-30 00:00:00,153.817,154.2803,152.4171,154.2113,315500,154.2113
2025-07-01 00:00:00,154.2113,157.5335,153.748,156.7547,338300,156.7547
2025-07-02 00:00:00,156.7646,158.2531,156.3998,158.0461,293500,158.0461
2025-07-03 00:00:00,158.3221,159.0714,157.5532,158.7559,235100,158.7559
2025-07-07 00:00:00,158.6672,160.067,158.2729,158.677,313900,158.677
2025-07-08 00:00:00,158.6179,160.2741,157.5828,157.78,342700,157.78
2025-07-09 00:00:00,157.6617,157.7405,155.8576,157.4645,252800,157.4645
2025-07-10 00:00:00,156.9322,158.0856,156.0844,156.0844,361600,156.0844
2025-07-11 00:00:00,156.3111,156.3111,154.4085,155.6604,292000,155.6604
2025-07-14 00:00:00,154.9112,156.6857,154.4676,155.3253,276600,155.3253
2025-07-15 00:00:00,155.5027,155.759,151.8848,151.9735,254200,151.9735
2025-07-16 00:00:00,151.7369,153.4029,151.3721,152.7819,261900,152.7819
2025-07-17 00:00:00,152.5453,154.1916,152.3185,153.817,397700,153.817
2025-07-18 00:00:00,154.6253,154.9802,152.7227,154.162,243100,154.162
2025-07-21 00:00:00,154.2014,154.4479,153.0382,153.2452,205900,153.2452
2025-07-22 00:00:00,153.8958,157.0997,153.0283,156.9124,449900,156.9124
2025-07-23 00:00:00,157.7997,159.5544,156.8829,159.3671,450500,159.3671
2025-07-24 00:00:00,159.12,162.402,157.9633,159.9701,431900,159.9701
2025-07-25 00:00:00,160.1975,161.2256,158.942,159.1496,296300,159.1496
2025-07-28 00:00:00,159.3572,160.1283,156.352,156.8858,308500,156.8858
2025-07-29 00:00:00,157.2318,157.7755,155.4227,157.0044,388200,157.0044
2025-07-30 00:00:00,156.9847,157.1132,153.149,154.9976,580700,154.9976
2025-07-31 00:00:00,153.9992,155.5512,153.406,155.3436,679700,155.3436
2025-08-01 00:00:00,155.1756,156.3124,139.4771,139.7342,1012300,139.7342
2025-08-04 00:00:00,141.4839,141.4839,135.513,137.5395,839000,137.5395
2025-08-05 00:00:00,137.7471,139.4574,136.116,138.6171,540800,138.6171
2025-08-06 00:00:00,138.706,139.1509,135.9776,136.9563,515300,136.9563
2025-08-07 00:00:00,138.2019,139.8725,137.322,138.884,564000,138.884
2025-08-08 00:00:00,139.0817,140.4261,138.973,139.141,428700,139.141
2025-08-11 00:00:00,139.7144,140.0011,137.6087,138.2711,349500,138.2711
2025-08-12 00:00:00,138.6171,139.4771,137.6384,137.8855,286100,137.8855
2025-08-13 00:00:00,138.0931,139.8231,137.6582,139.8132,729900,139.8132
2025-08-14 00:00:00,138.5874,138.5874,134.8803,136.7585,875800,136.7585
2025-08-15 00:00:00,136.7783,137.3616,136.2939,137.1342,770500,137.1342
2025-08-18 00:00:00,137.3023,137.9745,135.7799,136.3137,529500,136.3137
2025-08-19 00:00:00,136.6893,138.9136,136.6893,137.9942,333100,137.9942
2025-08-20 00:00:00,138.3106,139.6353,137.668,139.5661,519200,139.5661
2025-08-21 00:00:00,139.0224,140.2778,138.6368,139.0323,270400,139.0323
2025-08-22 00:00:00,139.6452,141.6915,139.576,139.8132,356500,139.8132
2025-08-25 00:00:00,139.3585,139.9912,137.3715,137.9646,245800,137.9646
2025-08-26 00:00:00,137.4802,138.5577,136.4323,138.1129,442900,138.1129
2025-08-27 00:00:00,137.5,138.9631,137.4407,137.846,729100,137.846
2025-08-28 00:00:00,138.5676,138.5676,135.8293,137.3023,320800,137.3023
2025-08-29 00:00:00,137.5791,138.2711,136.7685,137.6779,370700,137.6779
2025-09-02 00:00:00,135.8491,136.9464,134.6134,134.8506,310600,134.8506
2025-09-03 00:00:00,134.5244,134.6232,132.9031,133.6742,382300,133.6742
2025-09-04 00:00:00,134.7913,136.8969,133.4963,136.8772,401800,136.8772
2025-09-05 00:00:00,137.4308,139.2102,136.0567,137.0353,440800,137.0353
2025-09-08 00:00:00,137.0057,138.3996,136.1061,136.719,616100,136.719
2025-09-09 00:00:00,136.6795,137.8855,133.5556,135.4833,637100,135.4833
2025-09-10 00:00:00,134.5738,135.8886,133.3085,134.6924,685100,134.6924
2025-09-11 00:00:00,135.1867,136.6992,134.3168,135.5327,477500,135.5327
2025-09-12 00:00:00,135.0582,135.4833,133.6742,133.6841,261300,133.6841
2025-09-15 00:00:00,134.4156,134.6134,133.091,133.3085,298000,133.3085
2025-09-16 00:00:00,133.2491,133.8719,132.567,133.6643,474800,133.6643
2025-09-17 00:00:00,133.8719,135.5031,132.656,133.1107,377400,133.1107
2025-09-18 00:00:00,133.3579,133.9609,132.5374,132.9624,254800,132.9624
2025-09-19 00:00:00,133.1206,133.5556,131.8157,132.9031,877200,132.9031
2025-09-22 00:00:00,132.5868,133.3974,131.1534,131.2028,402100,131.2028
2025-09-23 00:00:00,131.4895,132.4187,130.4614,130.5108,319700,130.5108
2025-09-24 00:00:00,130.491,131.7861,129.8386,129.9967,353300,129.9967
2025-09-25 00:00:00,129.9967,131.0051,128.7808,129.3245,388700,129.3245
2025-09-26 00:00:00,129.8287,130.9161,129.4629,130.7777,274400,130.7777
2025-09-29 00:00:00,130.8865,131.1633,129.8583,130.7579,540600,130.7579
2025-09-30 00:00:00,130.2043,132.2309,130.2043,132.132,310400,132.132
2025-10-01 00:00:00,131.8058,132.824,130.7975,132.6066,310100,132.6066
2025-10-02 00:00:00,132.1321,132.8537,131.4401,131.6575,398500,131.6575
2025-10-03 00:00:00,130.9557,132.053,130.9161,131.6971,402000,131.6971
2025-10-06 00:00:00,131.3709,131.6773,129.9078,130.3724,447100,130.3724
2025-10-07 00:00:00,130.5998,130.9952,128.3261,129.0971,438800,129.0971
2025-10-08 00:00:00,129.6804,130.5009,128.7709,130.1055,361300,130.1055
2025-10-09 00:00:00,130.1944,131.3214,128.7116,129.1169,554200,129.1169
2025-10-10 00:00:00,129.4431,130.5009,128.4051,129.4332,426000,129.4332
2025-10-13 00:00:00,129.4926,130.837,128.6721,128.7314,311400,128.7314
2025-10-14 00:00:00,128.5534,129.5618,127.5649,128.3162,337400,128.3162
2025-10-15 00:00:00,128.3162,128.8994,126.3984,126.6356,438300,126.6356
2025-10-16 00:00:00,126.9717,128.0196,126.3885,127.6835,352700,127.6835
2025-10-17 00:00:00,127.6835,128.6128,127.377,127.8614,339700,127.8614
2025-10-20 00:00:00,128.1283,128.6029,126.5565,128.5139,240500,128.5139
2025-10-21 00:00:00,129.1169,130.2637,127.644,129.0774,311600,129.0774
2025-10-22 00:00:00,129.1564,130.5998,128.4941,128.5732,357500,128.5732
2025-10-23 00:00:00,128.732,130.5081,128.6526,129.754,378600,129.754
2025-10-24 00:00:00,129.7341,129.873,127.5413,127.8786,489300,127.8786
2025-10-27 00:00:00,128.1366,128.8907,127.452,127.7794,521700,127.7794
2025-10-28 00:00:00,127.7496,128.1069,126.4796,127.1047,413500,127.1047
2025-10-29 00:00:00,126.2911,126.5094,122.4611,123.3441,651100,123.3441
2025-10-30 00:00:00,123.0762,124.5447,122.084,123.3938,702600,123.3938
2025-10-31 00:00:00,114.3942,117.1824,102.4279,115.1086,2758200,115.1086
2025-11-03 00:00:00,115.188,115.188,107.4486,112.2411,1661000,112.2411
2025-11-04 00:00:00,113.4715,115.0987,111.6557,113.2929,1029100,113.2929
2025-11-05 00:00:00,113.4417,115.1384,111.8938,114.6721,896900,114.6721
2025-11-06 00:00:00,114.1263,116.0513,112.9158,115.2476,880300,115.2476
2025-11-07 00:00:00,115.3269,116.0116,113.7989,115.317,697200,115.317
2025-11-10 00:00:00,115.0888,115.8627,113.1143,115.4758,514000,115.4758
2025-11-11 00:00:00,116.0513,118.5814,116.0513,117.3511,484800,117.3511
2025-11-12 00:00:00,117.4205,118.7402,116.9939,117.2419,547500,117.2419
2025-11-13 00:00:00,117.3808,120.933,117.3808,119.2661,679400,119.2661
2025-11-14 00:00:00,118.8394,119.7523,117.4701,117.6884,521200,117.6884
2025-11-17 00:00:00,117.5694,118.5616,116.6565,118.4128,820200,118.4128
2025-11-18 00:00:00,118.7303,119.1768,117.1427,118.383,817400,118.383
2025-11-19 00:00:00,118.5814,118.5814,116.7954,117.0832,598900,117.0832
2025-11-20 00:00:00,117.0832,118.6807,116.4581,117.6587,507400,117.6587
2025-11-21 00:00:00,117.2122,121.2902,117.2122,120.5758,509100,120.5758
2025-11-24 00:00:00,119.911,121.449,119.5042,120.5262,740000,120.5262
2025-11-25 00:00:00,121.4589,123.1159,121.4589,122.4809,543600,122.4809
2025-11-26 00:00:00,122.0642,123.5525,122.0642,122.848,538000,122.848
2025-11-28 00:00:00,122.6694,125.1004,122.6694,123.7807,315700,123.7807
2025-12-01 00:00:00,123.9097,123.9891,122.0741,122.3222,536800,122.3222
2025-12-02 00:00:00,122.8083,122.8976,119.8614,120.6552,325400,120.6552
2025-12-03 00:00:00,120.5064,123.2945,120.4667,121.1116,543100,121.1116
2025-12-04 00:00:00,121.2505,123.1159,120.9826,121.0719,708000,121.0719
2025-12-05 00:00:00,121.0422,122.5504,119.6828,120.9628,537000,120.9628
2025-12-08 00:00:00,119.9805,121.1513,118.3731,119.1371,496600,119.1371
2025-12-09 00:00:00,118.6707,118.9188,114.4637,114.8209,640300,114.8209
2025-12-10 00:00:00,115.2674,116.8847,114.2355,116.2596,734700,116.2596
2025-12-11 00:00:00,117.0435,117.748,116.2497,117.0931,389700,117.0931
2025-12-12 00:00:00,117.5991,120.6949,116.7359,120.5262,656400,120.5262
2025-12-15 00:00:00,120.5361,121.5085,119.5439,121.3795,588600,121.3795
2025-12-16 00:00:00,121.7169,122.8877,118.5914,121.8756,644800,121.8756
2025-12-17 00:00:00,121.1612,123.6319,119.147,122.6694,567300,122.6694
2025-12-18 00:00:00,122.7091,123.1556,121.0819,121.6673,457100,121.6673
2025-12-19 00:00:00,122.3817,123.364,120.3179,120.4468,1300400,120.4468
2025-12-22 00:00:00,120.4468,122.7389,120.1293,121.7863,527800,121.7863
2025-12-23 00:00:00,121.9153,122.0741,120.3774,121.2406,311700,121.2406
2025-12-24 00:00:00,121.578,122.213,120.814,121.7963,198000,121.7963
2025-12-26 00:00:00,121.4192,122.5206,120.7743,122.2924,306000,122.2924
2025-12-29 00:00:00,122.3321,123.3442,121.3696,122.2527,400200,122.2527
2025-12-30 00:00:00,121.8459,123.3342,121.4688,121.7863,289800,121.7863
2025-12-31 00:00:00,120.5758,122.3718,120.4071,121.0124,314300,121.0124
2026-01-02 00:00:00,120.7941,122.0443,119.8416,121.5879,295100,121.5879
2026-01-05 00:00:00,120.814,123.6121,120.814,122.0443,435700,122.0443
2026-01-06 00:00:00,121.2704,121.8955,119.1768,119.6233,777200,119.6233
2026-01-07 00:00:00,119.7324,121.0025,116.6962,119.5042,478500,119.5042
2026-01-08 00:00:00,118.9883,122.4115,118.5914,121.4887,330000,121.4887
2026-01-09 00:00:00,121.1315,123.999,120.5163,122.8877,429100,122.8877
2026-01-12 00:00:00,123.0366,124.3265,122.0245,124.1578,477300,124.1578
2026-01-13 00:00:00,124.0784,124.4654,121.5879,122.5404,351900,122.5404
2026-01-14 00:00:00,123.1457,126.172,123.1457,125.8644,611700,125.8644
2026-01-15 00:00:00,126.1522,126.2315,123.5525,124.1379,381000,124.1379
2026-01-16 00:00:00,123.0366,124.2272,122.2825,123.741,363400,123.741
2026-01-20 00:00:00,123.9296,124.5547,122.4809,122.858,275100,122.858
2026-01-21 00:00:00,123.3442,124.644,122.9373,124.0387,421000,124.0387
2026-01-22 00:00:00,124.0784,125.4278,123.0961,123.5029,369700,123.5029
2026-01-23 00:00:00,123.3739,125.2988,122.9076,125.021,429500,125.021
2026-01-26 00:00:00,125.4378,126.0033,124.128,125.3683,315400,125.3683
2026-01-27 00:00:00,123.9792,125.3187,123.2052,123.7708,303100,123.7708
2026-01-28 00:00:00,123.235,124.0982,122.2924,122.7389,347800,122.7389
2026-01-29 00:00:00,123.3243,124.3066,121.6375,122.8877,386000,122.8877
2026-01-30 00:00:00,121.955,124.0387,121.707,123.9792,512700,123.9792
2026-02-02 00:00:00,123.235,124.9317,123.235,123.8601,489100,123.8601
2026-02-03 00:00:00,122.9473,126.936,122.729,123.6617,658700,123.6617
2026-02-04 00:00:00,125.2155,129.907,124.2095,128.7217,589400,128.7217
2026-02-05 00:00:00,127.1678,128.5723,121.4803,123.4923,2144200,123.4923
2026-02-06 00:00:00,127.0284,135.4551,127.0284,133.7817,1045700,133.7817
2026-02-09 00:00:00,133.0546,139.021,132.7259,137.9253,1043400,137.9253
2026-02-10 00:00:00,137.2679,140.3757,137.2679,139.6187,622100,139.6187
2026-02-11 00:00:00,138.4831,139.9972,138.0548,139.4593,584300,139.4593
2026-02-12 00:00:00,139.6087,141.4415,138.8417,139.9573,572700,139.9573
2026-02-13 00:00:00,139.9573,142.3678,139.8577,142.0192,471900,142.0192
2026-02-17 00:00:00,138.7122,143.0551,138.7122,141.0928,614700,141.0928
2026-02-18 00:00:00,140.9135,142.5471,140.286,141.1626,582000,141.1626
2026-02-19 00:00:00,141.0928,142.7563,140.4753,142.5969,525500,142.5969
2026-02-20 00:00:00,142.557,144.5691,141.4415,144.4795,664500,144.4795
2026-02-23 00:00:00,142.9256,145.6648,142.567,145.1468,513500,145.1468
2026-02-24 00:00:00,145.4954,146.3321,143.2842,143.573,429800,143.573
2026-02-25 00:00:00,141.8498,143.0949,139.8776,142.1188,348900,142.1188
2026-02-26 00:00:00,142.9555,143.3539,140.4454,141.2323,331300,141.2323
2026-02-27 00:00:00,140.9733,143.4435,140.4454,143.1447,344600,143.1447
2026-03-02 00:00:00,142.4375,142.7861,141.0629,142.1088,335000,142.1088
2026-03-03 00:00:00,140.0868,140.7641,136.3814,139.2103,347300,139.2103
2026-03-04 00:00:00,138.7919,138.9612,135.475,136.501,389000,136.501
2026-03-05 00:00:00,135.4651,135.8037,133.8813,134.2,452300,134.2
2026-03-06 00:00:00,133.4729,133.4729,130.4847,131.5605,398500,131.5605
2026-03-09 00:00:00,130.4548,133.453,127.0284,133.2239,545700,133.2239
2026-03-10 00:00:00,132.8255,133.6024,130.8831,131.6103,503100,131.6103
2026-03-11 00:00:00,131.2816,132.7558,129.5285,131.5007,563800,131.5007
2026-03-12 00:00:00,130.7537,132.2677,128.134,128.3531,620600,128.3531
2026-03-13 00:00:00,129.6381,129.6381,126.5503,128.144,660600,128.144
2026-03-16 00:00:00,128.9707,130.8931,125.5044,128.5424,370700,128.5424
2026-03-17 00:00:00,129.4588,130.5046,127.7356,128.9906,276700,128.9906
2026-03-18 00:00:00,123.8908,126.0821,120.9424,123.7314,910500,123.7314
2026-03-19 00:00:00,122.5262,124.329,120.9723,123.4824,518500,123.4824
2026-03-20 00:00:00,123.7712,123.7712,119.8368,120.5838,1481500,120.5838
2026-03-23 00:00:00,123.0242,125.843,122.5062,123.6517,455200,123.6517
2026-03-24 00:00:00,122.6756,124.7275,122.3867,123.6617,405000,123.6617
2026-03-25 00:00:00,124.9466,126.0721,123.2234,125.3251,337200,125.3251
2026-03-26 00:00:00,124.7275,126.8391,123.6318,124.1995,442100,124.1995
2026-03-27 00:00:00,123.4525,123.7214,121.2811,121.5102,381400,121.5102
2026-03-30 00:00:00,122.0779,123.4525,120.6237,122.8748,562000,122.8748
2026-03-31 00:00:00,123.9007,126.4606,123.1039,125.5243,557800,125.5243
2026-04-01 00:00:00,126.8391,128.134,125.8331,126.2514,380200,126.2514
2026-04-02 00:00:00,124.6478,126.5901,123.7613,125.5144,297500,125.5144
2026-04-06 00:00:00,124.0999,125.6936,124.0999,125.5144,461100,125.5144
2026-04-07 00:00:00,124.8271,126.6698,124.3091,125.1159,376900,125.1159
2026-04-08 00:00:00,130.8632,132.1482,127.6459,131.5007,645200,131.5007
2026-04-09 00:00:00,130.7039,131.9191,126.8391,130.8831,424100,130.8831
2026-04-10 00:00:00,131.7298,132.178,130.3353,130.9828,407400,130.9828
2026-04-13 00:00:00,130.2855,131.8991,127.0782,131.5904,396300,131.5904
2026-04-14 00:00:00,130.7138,132.198,130.4548,130.4947,315500,130.4947
2026-04-15 00:00:00,130.2955,130.5146,128.0942,129.14,407100,129.14
2026-04-16 00:00:00,126.4008,129.8174,126.4008,127.7854,393800,127.7854
2026-04-17 00:00:00,129.14,131.7796,129.14,130.1162,401100,130.1162
2026-04-20 00:00:00,130.0564,131.4708,129.15,130.405,403600,130.405
2026-04-21 00:00:00,130.1859,131.7298,126.1917,126.1917,310200,126.1917
2026-04-22 00:00:00,126.7794,126.7794,122.4763,124.0601,458900,124.0601
2026-04-23 00:00:00,124.8868,126.9387,123.9505,124.4486,440800,124.4486
2026-04-24 00:00:00,123.9206,123.9206,122.0879,123.5919,440900,123.5919
2026-04-27 00:00:00,123.5521,125.7335,123.0541,124.2394,359700,124.2394
2026-04-28 00:00:00,125.6239,126.1518,123.2334,125.2753,354300,125.2753
2026-04-29 00:00:00,124.6478,125.4048,122.307,122.4166,448400,122.4166
2026-04-30 00:00:00,122.9445,125.5841,121.4006,123.1935,764800,123.1935
2026-05-01 00:00:00,126.7096,127.9746,117.4363,118.5518,989400,118.5518
2026-05-04 00:00:00,118.2132,121.2711,116.998,120.1256,739600,120.1256
2026-05-05 00:00:00,120.4245,123.2234,120.3448,121.55,628600,121.55
2026-05-06 00:00:00,123.18,126.39,121.67,122.63,917000,122.63
2026-05-07 00:00:00,122.94,126.47,122.57,125.11,749700,125.11
2026-05-08 00:00:00,125.23,125.86,120.39,120.99,794900,120.99
2026-05-11 00:00:00,121.22,121.22,119.44,119.96,706100,119.96
2026-05-12 00:00:00,120.45,120.86,117.14,118.05,696600,118.05
2026-05-13 00:00:00,118.0,118.75,116.43,117.88,679500,117.88
2026-05-14 00:00:00,118.73,120.16,117.04,117.99,531000,117.99
2026-05-15 00:00:00,117.91,117.92,114.47,114.67,447000,114.67
2026-05-18 00:00:00,115.6,117.29,115.275,115.81,292161,115.81
